S0	Frequency	Disp
1.2	477.4	9.42E-6
1	436.9	1.23E-5
0.8	391.8	1.71E-5
0.5	311.1	3.45E-5
0.3	243.2	4.86E-5
0.2	198.7	1.33E-4
0.15	172.7	2.024E-4
0.1	142.2	3.61E-4
0.08	127.7	4.98E-4
0.05	102.0	9.77E-4
0.04	91.75	1.333E-3
0.03	79.46	2.068E-3
0.02	66.5	3.469E-3
0.01	47.82	9.318E-3